# Effective area of CTA
# 1st column: reconstructed energy [TeV]
# 2nd column: effective area [m^2]
1.412537600845098495e-02 2.719399108886718750e+02
1.778279431164264679e-02 1.248385131835937500e+03
2.238721214234828949e-02 4.357824218750000000e+03
2.818383090198040009e-02 8.839456054687500000e+03
3.548133745789527893e-02 1.475966015625000000e+04
4.466835781931877136e-02 1.942431054687500000e+04
5.623413249850273132e-02 2.705288671875000000e+04
7.079457491636276245e-02 4.610144531250000000e+04
8.912508934736251831e-02 8.388689843750000000e+04
1.122018396854400635e-01 1.293726562500000000e+05
1.412537544965744019e-01 1.788926718750000000e+05
1.778279393911361694e-01 2.219232656250000000e+05
2.238720953464508057e-01 2.873939062500000000e+05
2.818382978439331055e-01 3.566266250000000000e+05
3.548133969306945801e-01 4.040399687500000000e+05
4.466835558414459229e-01 4.944399687500000000e+05
5.623413324356079102e-01 5.994146250000000000e+05
7.079457640647888184e-01 6.646010000000000000e+05
8.912509083747863770e-01 7.567605000000000000e+05
1.122018456459045410e+00 9.106848750000000000e+05
1.412537574768066406e+00 1.131689500000000000e+06
1.778279423713684082e+00 1.509033625000000000e+06
2.238720893859863281e+00 1.858580375000000000e+06
2.818382978439331055e+00 2.236289750000000000e+06
3.548133850097656250e+00 2.583830750000000000e+06
4.466835975646972656e+00 2.957950000000000000e+06
5.623413085937500000e+00 3.148097000000000000e+06
7.079458236694335938e+00 3.420121750000000000e+06
8.912509918212890625e+00 3.542958500000000000e+06
1.122018432617187500e+01 3.705489750000000000e+06
1.412537574768066406e+01 3.960636500000000000e+06
1.778279495239257812e+01 3.813937500000000000e+06
2.238721084594726562e+01 4.096036750000000000e+06
2.818382835388183594e+01 4.461701000000000000e+06
3.548133850097656250e+01 4.469435000000000000e+06
4.466835784912109375e+01 4.566288000000000000e+06
5.623413467407226562e+01 4.160317750000000000e+06
7.079457855224609375e+01 4.437564000000000000e+06
8.912509155273437500e+01 3.946730750000000000e+06
1.122018432617187500e+02 4.217041000000000000e+06
1.412537536621093750e+02 4.106989000000000000e+06
1.778279418945312500e+02 4.895586500000000000e+06
